# COrE+Light
# https://arxiv.org/abs/1509.04714 Table 1
# Band[GHz], BeamFWHM[arcmin], sigmaQ[uK.deg]
60	21	0.485
70	18	0.467
80	15.8	0.32
90	14	0.257
100	12.6	0.197
115	11	0.138
130	9.7	0.11
145	8.7	0.092
160	7.9	0.092
175	7.2	0.09
195	6.5	0.09
220	5.7	0.135
255	5	0.218
295	4.3	0.43
340	3.7	0.817
390	3.2	1.645
450	2.8	4.205
520	2.4	10.535
600	2.1	15.848
