# PRISM
# https://arxiv.org/abs/1509.04714 Table 1
# Band[GHz], BeamFWHM[arcmin], sigmaQ[uK.deg]
30	17	0.211
36	14	0.141
43	12	0.133
51	10	0.103
62	8.2	0.098
75	6.8	0.093
90	5.7	0.078
105	4.8	0.068
135	3.8	0.061
160	3.2	0.0572
185	2.8	0.059
200	2.5	0.061
220	2.3	0.064
265	1.9	0.073
300	1.7	0.085
320	1.6	0.092
395	1.3	0.135
460	1.1	0.197
555	0.92	0.404
660	0.77	0.953
